"Wavelength","Zeiss BP 545/25","Zeiss FT 570","Zeiss BP 605/70"
357,,0.0191841598880438
358,,0.0244349689495329
359,,0.0306919443715566
360,,0.0435974809761223
361,,0.0565808186827607
362,,0.0654647074258729
363,,0.0717656782996589
364,,0.0838688008396752
365,,0.106891235896091
366,,0.128909997376017
367,,0.14151193912359
368,,0.154113880871163
369,,0.166715822618735
370,,0.197017843085804
371,,0.231075964313829,0.00635056415638943
372,,0.252796641301496,0.0105512114055805
373,,0.271699553922854,0.0127525583836263
374,,0.28527000787195,0.0127525583836263
375,,0.296022697454737,0.0127525583836263
376,,0.305474153765416,0.0127525583836263
377,,0.31514090789819,0.0127525583836263
378,,0.327742849645762,0.0155166622933618
379,,0.342893597480975,0.0218176331671476
380,,0.37942797166098,0.0269640514300708
381,,0.426582261873524,0.0311646986792619
382,,0.458087116242457,0.031202134173008
383,,0.489591970611389,0.0291018105484126
384,,0.521096824980322,0.0245701040846674
385,,0.560673707688274,0.0193192950231789
386,,0.599159275780636,0.0177766990291262
387,,0.611761217528209,0.0167265372168284
388,,0.618101285751771,0.0261128312778803
389,,0.625173576489111,0.0471340855418544
390,,0.632524709175195,0.0573681448438724
391,,0.641651666229337,0.0497071634741531
392,,0.651103122540016,0.0371052217265808
393,,0.669595119391238,0.0275167934925206
394,,0.699480713723435,0.0158688008396735
395,,0.721260167934925,0.0115442141170298
396,,0.726510976996414,0.0184077669902911
397,,0.727150223038572,0.0278592233009696
398,,0.723999737601679,0.0373106796116504
399,,0.718770139071109,0.0384456835476256
400,,0.709524184378552,0.0302466544214134
401,,0.695872080818682,0.0153845447389142
402,,0.696189888918044,0.00593308842823491
403,,0.709841992477915,0.00481763316714767
404,,0.74441878771976,0.00481763316714767
405,,0.779084229860929,0.00596234584098671
406,,0.790921455436019,0.00911283127787998
407,,0.796172264497508,0
408,,0.799164698679261,0
409,,0.793913889617773,0
410,,0.778047756494357,0
411,,0.742204845622321,0
412,,0.733803551123939,0
413,,0.731376541590136,0
414,,0.756580425085281,0
415,,0.779964576226713,0
416,,0.798774599842562,0
417,,0.814527027027028,0
418,,0.822191463307968,0
419,,0.827442272369457,0
420,,0.821588384501005,0
421,,0.814237251814921,0
422,,0.801676200472316,0
423,,0.792922548762354,0
424,,0.78557141607627,0
425,,0.788855287326161,0
426,,0.79410609638765,0
427,,0.800359748097612,0
428,,0.813235371293624,0
429,,0.823489504067174,0
430,,0.826639989504067,0
431,,0.826341773812647,0
432,,0.823191288375754,0
433,,0.817966675413277,0
434,,0.81166570453949,0
435,,0.805364733665704,0
436,,0.803482812909997,0
437,,0.805845676987667,0
438,,0.808208541065337,0
439,,0.808228811335607,0
440,,0.808228811335607,0
441,,0.804753301845534,0
442,,0.79740216915945,0
443,,0.790664130149566,0
444,,0.782659319513686,0
445,,0.771107539578411,0
446,,0.766873524009447,0
447,,0.772124333070935,0
448,,0.790002099186566,0
449,,0.812323930726843,0
450,,0.819675063412927,0
451,,0.825353319338756,0
452,,0.82850380477565,0
453,,0.826840986617685,0
454,,0.815027814221987,0
455,,0.786673445289951,0
456,,0.761440041983729,0
457,,0.738540146943057,0
458,,0.714999737601677,0
459,,0.689795854106531,0
460,,0.685408904049682,0
461,,0.695910522172659,0
462,,0.734108632904751,0
463,,0.769450931514038,0
464,,0.784098136971924,0
465,,0.793549593282604,0
466,,0.800114930464445,0
467,,0.796070191550773,0
468,,0.770340593020201,0
469,,0.722108764103909,0
470,,0.68745342429808,0
471,,0.652798084492257,0
472,,0.616191025977431,0
473,,0.572711493046439,0
474,,0.52391970611388,0
475,,0.517618735240093,0
476,,0.52722540015744,0
477,,0.558170296510104,0
478,,0.59312122802414,0
479,,0.60820585148255,0
480,,0.613456660544039,0
481,,0.617240488060876,0
482,,0.614090002623983,0
483,,0.602840461821041,0
484,,0.571750196798739,0
485,,0.555997769614274,0
486,,0.54266176856468,0
487,,0.52846037785358,0
488,,0.508013119916029,0
489,,0.473357780110205,0
490,,0.460514300708474,0
491,,0.44561335607452,0
492,,0.415040671739697,0
493,,0.374433875623194,0
494,,0.358681448438729,0
495,,0.336931907635789,0
496,,0.308333770663864,0
497,,0.279558121228022,0
498,,0.264211493046447,0
499,,0.29571634741538,0
500,,0.318577801102073,0
501,,0.338567042770926,0
502,,0.343750983993702,0
503,,0.325847546575699,0
504,,0.294342692206768,0
505,,0.251782996588817,0
506,,0.19988926790868,0
507,,0.134142482288109,0
508,,0.0584854368932042,0
509,,0.039582524271844,0
510,,0.0286184728417737,0
511,,0.0209963264235108,0
512,,0.0146953555497242,0
513,,0,0
514,,0,0
515,,0,0
516,,0,0
517,,0,0
518,,0,0
519,,0,0
520,,0,0
521,,0,0
522,,0,0
523,,0,0
524,,0,0
525,,0,0
526,0.0537320913146207,0,0
527,0.125772107058523,0,0
528,0.267543951718713,0,0
529,0.493135791130955,0,0
530,0.705708475465772,0,0
531,0.831632248753609,0,0
532,0.85368564681186,0,0
533,0.864627984780897,0,0
534,0.866203227499344,0,0
535,0.867684170821306,0,0
536,0.865321306743637,0,0
537,0.862958442665967,0,0
538,0.862983534505379,0,0
539,0.865346398583049,0,0
540,0.867709262660719,0,0
541,0.868776917694393,0,0
542,0.870237470480189,0,0
543,0.875488279541677,0,0
544,0.879423948220065,0,0
545,0.878373786407767,0,0
546,0.876316277442491,0,0
547,0.8721156301933,0,0
548,0.869724481763317,0,0
549,0.869724481763317,0,0
550,0.869724481763317,0,0
551,0.86014563106796,0.00489258962240044,0
552,0.847406979795317,0.00978517924480088,0
553,0.740290474940951,0.0127525583836263,0
554,0.56338677512463,0.0127525583836263,0
555,0.380800970873776,0.0175209918656526,0
556,0,0.0261999475203366,0
557,0,0.0325009183941234,0
558,0,0.0419078981894528,0
559,0,0.0650935450013168,0
560,0,0.0890317501968022,0
561,0,0.109244817633171,0
562,0,0.134448701128318,0
563,0,0.165629755969565,0
564,0,0.229708737864081,0
565,0,0.290860666491738,0
566,0,0.329204145893474,0
567,0,0.37016045657308,0
568,0,0.411116767252694,0
569,0,0.472614930464457,0.141228207158664
570,0,0.528992390448707,0.312362896877499
571,0,0.561337706638683,0.520921542902148
572,0,0.5991435318814,0.672144843873016
573,0,0.639703096300187,0.768293361322494
574,0,0.703900551036485,0.837139333508274
575,0,0.766985699291531,0.87518499081606
576,0,0.801943846759384,0.87938563806525
577,0,0.839749672002101,0.881626869588034
578,0,0.869646549462086,0.881626869588034
579,0,0.901639595906591,0.881626869588034
580,0,0.927273681448439,0.883617598180705
581,0,0.933512857517712,0.885841511414327
582,0,0.938763666579201,0.890042158663518
583,0,0.943791491734453,0.893529257412752
584,0,0.94772959853057,0.893529257412752
585,0,0.951667705326687,0.893529257412752
586,0,0.953041196536342,0.893529257412752
587,0,0.953041196536342,0.893529257412752
588,0,0.953458934662818,0.893250765328435
589,0,0.956609420099711,0.891150441703839
590,0,0.959759905536605,0.887770926266071
591,0,0.96097612175282,0.880419793579987
592,0,0.96097612175282,0.876513644712674
593,0,0.96097612175282,0.878876508790344
594,0,0.96097612175282,0.881239372868013
595,0,0.96097612175282,0.880968413802151
596,0,0.961430333245867,0.880180792442928
597,0,0.96221795460509,0.878643269483075
598,0,0.96326467243943,0.875492784046182
599,0,0.968515481500919,0.869643007084754
600,0,0.972878509577538,0.861789556546838
601,0,0.972878509577538,0.861789556546838
602,0,0.972878509577538,0.862966150616636
603,0,0.972878509577538,0.867166797865827
604,0,0.972878509577538,0.871778185952943
605,0,0.972878509577538,0.877028995014432
606,0,0.972878509577538,0.880038638152716
607,0,0.972878509577538,0.880826259511939
608,0,0.972878509577538,0.881613880871162
609,0,0.972878509577538,0.877753706376278
610,0,0.972878509577538,0.873815599580162
611,0,0.972878509577538,0.87097592495408
612,0,0.972716609813697,0.869400682235633
613,0,0.971928988454474,0.867825439517187
614,0,0.97114136709525,0.865504919968512
615,0,0.968189615586459,0.863142055890842
616,0,0.964251508790343,0.862799921280504
617,0,0.96097612175282,0.865162785358174
618,0,0.96097612175282,0.867525649435844
619,0,0.96097612175282,0.867740750459197
620,0,0.959441091577014,0.867740750459197
621,0,0.957078227499344,0.866818453161899
622,0,0.954921739700866,0.864455589084229
623,0,0.954134118341642,0.86209272500656
624,0,0.953346496982419,0.861789556546838
625,0,0.953041196536342,0.861789556546838
626,0,0.953041196536342,0.861511479926528
627,0,0.953041196536342,0.860723858567305
628,0,0.953041196536342,0.859936237208082
629,0,0.953041196536342,0.857176987667279
630,0,0.953494161637365,0.854026502230385
631,0,0.954281782996589,0.848890273768914
632,0,0.955158357386513,0.843402256625556
633,0,0.957521221464183,0.833950800314877
634,0,0.959884085541852,0.824499344004198
635,0,0.96097612175282,0.815047887693519
636,0,0.96097612175282,0.808457622671215
637,0,0.96097612175282,0.793979795329309
638,0,0.96097612175282,0.735805300446062
639,0,0.96097612175282,0.612804775649424
640,0,0.962027464357561,0.467882445552354
641,0,0.964127787982157,0.33393518761479
642,0,0.967512638852445,0.207395171870887
643,0,0.971713286101636,0.0956243768039817
644,0,0.971360797690894,0
645,0,0.969260474066299,0
646,0,0.965409253914108,0
647,0,0.961208606664917,0
648,0,0.958744030438205,0
649,0,0.956381166360535,0
650,0,0.954689385987929,0
651,0,0.953901764628706,0
652,0,0.953114143269483,0
653,0,0.948038474153765,0
654,0,0.942525124639202,0
655,0,0.937930333245867,0
656,0,0.934779847808974,0
657,0,0.931629362372081,0
658,0,0.927793558121228,0
659,0,0.923855451325111,0
660,0,0.920471004985568,0
661,0,0.918108140907898,0
662,0,0.915745276830228,0
663,0,0.914694338756232,0
664,0,0.913906717397008,0
665,0,0.91410899370244,0
666,0,0.91647185778011,0
667,0,0.918834721857781,0
668,0,0.919944371556022,0
669,0,0.920731992915245,0
670,0,0.922828325898715,0
671,0,0.928341675413278,0
672,0,0.933855024927841,0
673,0,0.93757662030963,0
674,0,0.940727105746523,0
675,0,0.944632642351089,0
676,0,0.950933613224876,0
677,0,0.957234584098662,0
678,0,0.959560286014169,0
679,0,0.960347907373393,0
680,0,0.96097612175282,0
681,0,0.96097612175282,0
682,0,0.96097612175282,0
683,0,0.960437581999475,0
684,0,0.959649960640251,0
685,0,0.95847218577801,0
686,0,0.955321700341117,0
687,0,0.951011239394733,0
688,0,0.943660106708649,0
689,0,0.937935318813959,0
690,0,0.934784833377066,0
691,0,0.931634347940172,0
692,0,0.924835476252951,0
693,0,0.917484343566867,0
694,0,0.908075833114667,0
695,0,0.900893466281814,0
696,0,0.894592495408028,0
697,0,0.888714947957665,0
698,0,0.884514300708474,0
699,0,0.881626869588034,0
700,0,0.881626869588034,0
701,0,0.881626869588034,0
702,0,0.881626869588034,0
703,0,0.881626869588034,0
704,0,0.881626869588034,0
705,0,0.881660544039185,0
706,0,0.88376086766378,0
707,0,0.886128050380478,0
708,0,0.890328697629669,0
709,0,0.894029301145806,0
710,0,0.896129624770401,0
711,0,0.899696405143007,0
712,0,0.905997376016793,0
713,0,0.91229834689058,0
714,0,0.918599317764367,0
715,0,0.925500087466107,0
716,0,0.932851220152191,0
717,0,0.936799494883233,0
718,0,0.939162358960902,0
719,0,0.941482288113356,0
720,0,0.943582611737952,0
721,0,0.946259599405231,0
722,0,0.950460246654422,0
723,0,0.953041196536342,0
724,0,0.953041196536342,0
725,0,0.953041196536342,0
726,0,0.951220327123239,0
727,0,0.949120003498644,0
728,0,0.943938598792967,0
729,0,0.938687789731479,0
730,0,0.93343698066999,0
731,0,0.928186171608501,0
732,0,0.922935362547012,0
733,0,0.91703126913321,0
734,0,0.909680136447126,0
735,0,0.902329003761042,0
736,0,0.894977871074958,0
737,0,0.889026305431645,0
738,0,0.884300577276306,0
739,0,0.87955208606665,0
740,0,0.873251115192863,0
741,0,0.866950144319076,0
742,0,0.862211230648123,0
743,0,0.85906074521123,0
744,0,0.855910259774337,0
745,0,0.852759774337444,0
746,0,0.849609288900551,0
747,0,0.846819961952243,0
748,0,0.844457097874573,0
749,0,0.842094233796903,0
750,0,0.844173117292049,0
751,0,0.846535981369719,0
752,0,0.848345840986617,0
753,0,0.849396002798915,0
754,0,0.852682148167584,0
755,0,0.857932957229073,0
756,0,0.861832589871425,0
757,0,0.864983075308318,0
758,0,0.868526371031226,0
759,0,0.874827341905012,0
760,0,0.881128312778798,0
761,0,0.886474612962476,0
762,0,0.891200341117817,0
763,0,0.895971967112744,0
764,0,0.901222776174233,0
765,0,0.906473585235721,0
766,0,0.91172439429721,0
767,0,0.916081507478352,0
768,0,0.918444371556022,0
769,0,0.920807235633692,0
770,0,0.921301495670427,0
771,0,0.921301495670427,0
772,0,0.921301495670427,0
773,0,0.921301495670427,0
774,0,0.921301495670427,0
775,0,0.920707983468905,0
776,0,0.919920362109682,0
777,0,0.918577669902912,0
778,0,0.915427184466019,0
779,0,0.910823537129361,0
780,0,0.903472404443276,0
781,0,0.896121271757193,0
782,0,0.88877013907111,0
783,0,0.882015481500918,0
784,0,0.875390361235021,0
785,0,0.868039228548936,0
786,0,0.861569579288025,0
787,0,0.856318770226536,0
788,0,0.850510627131985,0
789,0,0.843354631330358,0
790,0,0.833953905361672,0
791,0,0.828703096300183,0
792,0,0.823710837050642,0
793,0,0.820560351613749,0
794,0,0.815934662818156,0
795,0,0.806483206507477,0
796,0,0.802150266771625,0
797,0,0.797949619522435,0
798,0,0.793748972273243,0
799,0,0.79037522959853,0
800,0,0.79037522959853,0
801,0,0.787421542902125,0
802,0,0.784385791130936,0
803,0,0.783598169771713,0
804,0,0.78281054841249,0
805,0,0.782440304382052,0
806,0,0.782440304382052,0
807,0,0.785132686084143,0
808,0,0.789333333333334,0
809,0,0.79037522959853,0
810,0,0.79037522959853,0
811,0,0.795812909997377,0
812,0,0.801479926528471,0
813,0,0.806730735589959,0
814,0,0.811606271319864,0
815,0,0.816331999475204,0
816,0,0.821572465669553,0
817,0,0.828923598355638,0
818,0,0.835952243505642,0
819,0,0.842253214379428,0
820,0,0.848554185253215,0
821,0,0.854855156127001,0
822,0,0.860600454823756,0
823,0,0.865851263885244,0
824,0,0.868244948832327,0
825,0,0.86903257019155,0
826,0,0.870203030700603,0
827,0,0.87414113749672,0
828,0,0.878079244292837,0
829,0,0.877743768039884,0
830,0,0.874593282602991,0
831,0,0.871442797166097,0
832,0,0.868292311729204,0
833,0,0.865141826292311,0
834,0,0.861991340855418,0
835,0,0.858840855418525,0
836,0,0.855295722907372,0
837,0,0.843743942972096,0
838,0,0.833187702265371,0
839,0,0.827936893203883,0
840,0,0.822686084142394,0
841,0,0.817435275080905,0
842,0,0.808193387562317,0
843,0,0.793581999475203,0
844,0,0.787281028601416,0
845,0,0.778266203096299,0
846,0,0.770711624245603,0
847,0,0.763330753083178,0
848,0,0.753879296772499,0
849,0,0.74538095862853,0
850,0,0.738029825942446,0
851,0,0.731271844660193,0
852,0,0.724008396746259,0
853,0,0.714702440304382,0
854,0,0.708401469430595,0
855,0,0.702100498556808,0
856,0,0.695799527683022,0
857,0,0.689498556809235,0
858,0,0.68319758593545,0
859,0,0.676896615061663,0
860,0,0.671382839149829,0
861,0,0.66613203008834,0
862,0,0.664722316977171,0
863,0,0.663934695617948,0
864,0,0.664763185515613,0
865,0,0.668701292311729,0
866,0,0.672639399107846,0
867,0,0.677225990553661,0
868,0,0.681951718709,0
869,0,0.688117423248492,0
870,0,0.697568879559172,0
871,0,0.705273987579813,0
872,0,0.710524796641302,0
873,0,0.71577560570279,0
874,0,0.721026414764279,0
875,0,0.725607452112307,0
876,0,0.729808099361497,0
877,0,0.730273517449488,0
878,0,0.729485896090265,0
879,0,0.727187571066212,0
880,0,0.719836438380127,0
881,0,0.707469036998162,0
882,0,0.68644738913671,0
883,0,0.676995932826028,0
884,0,0.664953030700602,0
885,0,0.650576620309629,0
886,0,0.627164261348726,0
887,0,0.587332065074784,0
888,0,0.571579637890316,0
889,0,0.555827210705851,0
890,0,0.540074783521385,0
891,0,0.521802151666227,0
892,0,0.49671372343217,0
893,0,0.487262267121487,0
894,0,0.480167410128574,0
895,0,0.473866439254788,0
896,0,0.468047231697717,0
897,0,0.463846584448525,0
898,0,0.461075833114668,0
899,0,0.461075833114668,0
900,0,0.461075833114668,0
901,0,0.461075833114668,0
902,0,0.462257150354238,0.0105972975692459
903,0,0.464357473978834,0.0211945951384918
904,0,0.469286801364472,0.0296057027901706
905,0,0.470368669640513,0.0369568354762536
906,0,0.464067698766726,0.0410125951193911
907,0,0.460662194961952,0.0441630805562842
908,0,0.459874573602729,0.0501348727368146
909,0,0.459002842648471,0.0584401731828925
910,0,0.445350739088601,0.0667042770926273
911,0,0.432562844397795,0.0733756231960125
912,0,0.426261873524008,0.0828270795066927
913,0,0.41455313565993,0.0895746523222259
914,0,0.400064287588556,0.101536342167413
915,0,0.381102072946729,0.114078981894517
916,0,0.356657045394908,0.120295635441267
917,0,0.340904618210443,0.125546444502755
918,0,0.325152191025974,0.129591795679174
919,0,0.309399763841507,0.128541633866876
920,0,0.288884807137229,0.124951456310678
921,0,0.258057596431381,0.115499999999999
922,0,0.242305169246912,0.106048543689318
923,0,0.226552742062449,0.0990661243768029
924,0,0.209148255051166,0.0911130936761993
925,0,0.189410259774333,0.0799914720545755
926,0,0.167429283652583,0.0642993964838614
927,0,0.157977827341903,0.0590485874223726
928,0,0.148526371031224,0.0540430333245859
929,0,0.139074914720545,0.0508925478876929
930,0,0.127470480188925,0.0467851832414933
931,0,0.108567567567563,0.039434050555409
932,0,0.102886381527157,0.0327945421149298
933,0,0.0973016268695874,0.0275437330534414
934,0,0.0878501705589081,0.0218205195486746
935,0,0.0783987142482288,0.0155195486748884
936,0,0.0724812385200731,0.0115745648561179
937,0,0.0693307530831794,0.00947424123152213
938,0,0.0640635003935963,0
939,0,0.0581957928802581,0
940,0,0.052944983818769,0
941,0,0.0483814943584351,0
942,0,0.0444433875623187,0
943,0,0.040513087116242,0
944,0,0.0381502230385722,0
945,0,0.0357873589609024,0
946,0,0.0341905667803724,0
947,0,0.0334029454211491,0
948,0,0.0326153240619258,0
949,0,0.0280168590921013,0
950,0,0.0232911309367617,0
951,0,0.0206874836001048,0
952,0,0.0206874836001048,0
953,0,0.0206874836001048,0
954,0,0.0184890448701124,0
955,0,0.0161261807924426,0
956,0,0.0144119653634215,0
957,0,0.0136243440041981,0
958,0,0.0128367226449747,0
959,0,0.0127525583836261,0
960,0,0.0127525583836261,0
961,0,0.0127525583836261,0
962,0,0.0127525583836261,0
963,0,0.0127525583836261,0
964,0,0.0127525583836261,0
965,0,0.0127525583836261,0
966,0,0.0127525583836261,0
967,0,0.0127525583836261,0
968,0,0.0127525583836261,0
969,0,0.0127525583836261,0
970,0,0.0127525583836261,0
971,0,0.0127525583836261,0
972,0,0.0127525583836261,0
973,0,0,0
974,0,0,0
975,0,0,0
976,0,0,0
977,0,0,0
978,0,0,0
979,0,0,0
980,0,0,0
981,0,0,0
982,0,0,0
983,0.00499603851055565,0,0
984,0.0099920770211113,0,0
985,0.0127525583836261,0,0
986,0.0127525583836261,0,0
987,0.0156850782821657,0,0
988,0.0209358873436535,0,0
989,0.0261866964051427,0,0
990,0.0314375054666325,0,0
991,0.0399670690107581,0,0
992,0.0527027027027014,0,0
993,0.0676300183678827,0,0
994,0.0802482288113355,0,0
995,0.0991511414326957,0,0
996,0.125078981894519,0,0.00594327383728347
997,0.168680005247971,0,0.0118865476745669
998,0.216508527945421,0,0.0127525583836261
999,0.222809498819208,0,0.0127525583836261
1000,0.229110469692994,0,0.0127525583836261
1001,0.224290343741799,0,0.0127525583836261
1002,0.200766465494618,0,0.0127525583836261
1003,0.164532274993436,0,0.0127525583836261
1004,0.148779847808974,0,0.0127525583836261
1005,0.14082414939211,0,0.0134575898714246
1006,0.133729401731829,0,0.0158204539490947
1007,0.132941780372605,0,0.0181833180267648
1008,0.132154159013382,0,0.0193178955654683
1009,0.13286950056853,0,0.0201055169246917
1010,0.134969824193125,0,0.0206874836001048
1011,0.143701390711101,0,0.0206874836001048
1012,0.156303332458674,0,0.0206874836001048
1013,0.15896388743112,0,0.0206874836001048
1014,0.158176266071897,0,0.0206874836001048
1015,0.156859748097611,0,0.0206874836001048
1016,0.153709262660718,0,0.0206874836001048
1017,0.147393859879293,0,0.0206874836001048
1018,0.135029913408553,0,0.0190211886643919
1019,0.125578457097873,0,0.0166583245867218
1020,0.118698504329572,0,0.0145893466281812
1021,0.110643007084754,0,0.0138017252689579
1022,0.0993164523747002,0,0.0130141039097346
1023,0.0835640251902356,0,0.0127525583836261
1024,0.0729609026502222,0,0.0127525583836261
1025,0.0698104172133285,0,0.0127525583836261
1026,0.0661142307355884,0,0.0127525583836261
